time,flux,t,zenith,azimuth,sn1,sn2,sn3,sun_h
0.0,157.6649999999748,17830.0,89.82600000000001,61.04,0.8749539202479327,0.48419666962312397,0.003036868230496388,0.47999999999992327
8.0,283.79699999999497,17838.0,89.82600000000001,61.04,0.8749539202479327,0.48419666962312397,0.003036868230496388,0.8639999999999847
16.0,409.92900000001515,17846.0,89.82600000000001,61.04,0.8749539202479327,0.48419666962312397,0.003036868230496388,1.248000000000046
24.0,536.0609999999849,17854.0,89.82600000000001,61.04,0.8749539202479327,0.48419666962312397,0.003036868230496388,1.631999999999954
32.0,662.1930000000051,17862.0,89.82600000000001,61.04,0.8749539202479327,0.48419666962312397,0.003036868230496388,2.016000000000015
40.0,788.3249999999748,17870.0,89.82600000000001,61.04,0.8749539202479327,0.48419666962312397,0.003036868230496388,2.399999999999923
48.0,914.456999999995,17878.0,89.82600000000001,61.04,0.8749539202479327,0.48419666962312397,0.003036868230496388,2.7839999999999847
56.0,947.5730000000003,17886.0,89.8082,61.054,0.8750713378648813,0.4839823836206183,0.003347535253217851,3.1820000000000483
64.0,949.6836666666665,17894.0,89.78446666666667,61.07266666666666,0.8752276816476546,0.48369655204334067,0.0037617574424169803,3.5846666666666183
72.0,951.7943333333335,17902.0,89.76073333333333,61.09133333333333,0.875383781867213,0.4834105870203535,0.004175978986165751,3.9873333333333494
80.0,953.9049999999996,17910.0,89.73700000000001,61.10999999999999,0.8755396384264472,0.4831244887291052,0.00459019981339068,4.38999999999992
88.0,956.0156666666667,17918.0,89.71326666666667,61.12866666666667,0.8756952512283797,0.48283825734711605,0.005004419853019294,4.79266666666665
96.0,958.1263333333336,17926.0,89.68953333333333,61.147333333333336,0.8758506201761641,0.48255189305197843,0.005418639033978589,5.195333333333382
104.0,960.2369999999997,17934.0,89.6658,61.166,0.8760057451730866,0.4822653960213565,0.00583285728519571,5.597999999999952
112.0,962.2973333333334,17942.0,89.6421,61.184666666666665,0.8761606293067972,0.4819787681846422,0.00624649277053238,6.004000000000017
120.0,964.2066666666664,17950.0,89.6185,61.203333333333326,0.8763152799050974,0.48169201379654464,0.006658381896538201,6.419999999999917
128.0,966.116,17958.0,89.5949,61.222,0.8764696879531142,0.48140512812288627,0.00707026989288462,6.835999999999983
136.0,968.0253333333336,17966.0,89.5713,61.24066666666667,0.8766238533555524,0.4811181113399639,0.007482156689691059,7.25200000000005
144.0,969.9346666666664,17974.0,89.5477,61.25933333333333,0.8767777760172482,0.4808309636241443,0.007894042217076921,7.6679999999999495
152.0,971.844,17982.0,89.5241,61.278,0.8769314558431678,0.48054368515186463,0.008305926405161824,8.084000000000017
160.0,973.753333333333,17990.0,89.5005,61.29666666666666,0.8770848927384075,0.4802562760996324,0.008717809184065615,8.499999999999917
168.0,975.6626666666666,17998.0,89.4769,61.315333333333335,0.8772380866081948,0.47996873664402484,0.0091296904839086,8.915999999999983
176.0,977.4450000000002,18006.0,89.4532,61.335,0.8773993946247369,0.47966574553714636,0.009543315484597591,9.33900000000005
184.0,979.1849999999998,18014.0,89.42946666666667,61.355,0.8775632315632357,0.4793575099983219,0.009957520599996017,9.764333333333282
192.0,980.9250000000001,18022.0,89.40573333333333,61.375,0.8777268096187023,0.4790491363291452,0.010371724006861474,10.189666666666684
200.0,982.6650000000004,18030.0,89.38199999999999,61.395,0.8778901286866361,0.4787406247257241,0.010785925634123809,10.615000000000085
208.0,984.405,18038.0,89.35826666666667,61.415,0.8780531886626869,0.47843197538424664,0.011200125410713182,11.040333333333317
216.0,986.1450000000002,18046.0,89.33453333333333,61.435,0.8782159894426538,0.47812318850097996,0.011614323265560729,11.465666666666717
224.0,987.8849999999999,18054.0,89.3108,61.455,0.8783785309224864,0.4778142642722711,0.012028519127597033,11.890999999999948
232.0,989.5886666666668,18062.0,89.28703333333333,61.474666666666664,0.8785380286104845,0.47751031057274523,0.012443294657131685,12.319000000000019
240.0,991.1833333333337,18070.0,89.26316666666665,61.49333333333334,0.8786889212567262,0.47722154694058594,0.012859813230566168,12.755000000000088
248.0,992.778,18078.0,89.23929999999999,61.512,0.8788395665049741,0.4769326529169797,0.013276329572623346,13.190999999999983
256.0,994.3726666666669,18086.0,89.21543333333332,61.53066666666667,0.8789899642601763,0.47664362868262283,0.013692843611031846,13.627000000000052
264.0,995.9673333333332,18094.0,89.19156666666666,61.54933333333333,0.8791401144274144,0.4763544744182827,0.014109355273519584,14.062999999999949
272.0,997.562,18102.0,89.1677,61.568,0.8792900169119054,0.47606519030479727,0.014525864487815555,14.499000000000018
280.0,999.156666666667,18110.0,89.14383333333332,61.58666666666667,0.8794396716190003,0.4757757765230747,0.014942371181649398,14.935000000000088
288.0,1000.7513333333333,18118.0,89.11996666666666,61.605333333333334,0.8795890784541849,0.4754862332540941,0.015358875282749863,15.370999999999983
296.0,1002.2520000000002,18126.0,89.09609999999999,61.624,0.8797382373230797,0.4751965606789041,0.015775376718847697,15.812000000000053
304.0,1003.7213333333332,18134.0,89.07223333333333,61.64266666666666,0.8798871481314393,0.47490675897862406,0.01619187541767301,16.254666666666616
312.0,1005.1906666666667,18142.0,89.04836666666667,61.66133333333333,0.8800358107851545,0.47461682833444296,0.01660837130695726,16.69733333333335
320.0,1006.6600000000003,18150.0,89.02449999999999,61.68000000000001,0.8801842251902492,0.47432676892762005,0.017024864314431738,17.14000000000009
328.0,1008.1293333333332,18158.0,89.00063333333333,61.69866666666667,0.8803323912528832,0.4740365809394845,0.017441354367828232,17.58266666666665
336.0,1009.5986666666668,18166.0,88.97676666666666,61.717333333333336,0.8804803088793508,0.47374626455143515,0.017857841394879708,18.025333333333386
344.0,1011.0679999999998,18174.0,88.9529,61.736,0.8806279779760814,0.47345581994494024,0.01827432532331877,18.467999999999947
352.0,1012.51,18182.0,88.92903333333334,61.754666666666665,0.8807753984496396,0.473165247301538,0.01869080608087944,18.913000000000018
360.0,1013.8700000000002,18190.0,88.90516666666666,61.77333333333334,0.8809225702067247,0.4728745468028356,0.019107283595295642,19.36500000000009
368.0,1015.2299999999999,18198.0,88.8813,61.792,0.8810694931541712,0.4725837186305105,0.019523757794302068,19.816999999999982
376.0,1016.5900000000001,18206.0,88.85743333333333,61.81066666666667,0.8812161671989488,0.4722927629663083,0.019940228605633766,20.269000000000055
384.0,1017.9500000000004,18214.0,88.83356666666666,61.82933333333334,0.8813625922481626,0.4720016799920444,0.02035669595702727,20.721000000000128
392.0,1019.3100000000001,18222.0,88.8097,61.848,0.8815087682090526,0.47171046988960336,0.02077315977621793,21.17300000000002
400.0,1020.6700000000003,18230.0,88.78583333333333,61.866666666666674,0.8816546949889946,0.4714191328409381,0.021189619990943924,21.625000000000092
408.0,1022.03,18238.0,88.76196666666667,61.885333333333335,0.8818003724954994,0.4711276690280713,0.021606076528942513,22.076999999999984
416.0,1023.3180000000001,18246.0,88.7381,61.905,0.8819540181416942,0.4708206857033366,0.02202252931795181,22.534000000000056
424.0,1024.5820000000003,18254.0,88.71423333333333,61.925000000000004,0.8821101412003627,0.47050843886690236,0.022438978285711474,22.992666666666796
432.0,1025.846,18262.0,88.69036666666668,61.945,0.8822660006457714,0.47019605881754545,0.02285542335996004,23.451333333333352
440.0,1027.1100000000001,18270.0,88.6665,61.965,0.8824215963769372,0.46988354575547797,0.02327186446843917,23.910000000000093
448.0,1028.3739999999998,18278.0,88.64263333333334,61.985,0.88257692829303,0.46957089988098966,0.023688301538888765,24.36866666666665
456.0,1029.6380000000001,18286.0,88.61876666666667,62.005,0.8827319962933736,0.46925812139444717,0.02410473449905099,24.82733333333339
464.0,1030.9020000000003,18294.0,88.59490000000001,62.025000000000006,0.882886800277445,0.46894521049629434,0.024521163276668496,25.28600000000013
472.0,1032.1443333333334,18302.0,88.57100000000001,62.044666666666664,0.8830386009231495,0.46863729790416236,0.024938169394970604,25.746000000000016
480.0,1033.321666666667,18310.0,88.54700000000001,62.06333333333334,0.8831819274135521,0.468344648633875,0.025356915942118877,26.210000000000093
488.0,1034.4989999999998,18318.0,88.52300000000001,62.082,0.8833250019558897,0.46805187359119127,0.025775658040152034,26.67399999999998
496.0,1035.6763333333336,18326.0,88.49900000000001,62.10066666666667,0.8834678244583536,0.46775897296060204,0.02619439561559773,27.138000000000055
504.0,1036.853666666667,18334.0,88.47500000000001,62.11933333333334,0.8836103948292718,0.4674659469266668,0.026613128594984437,27.602000000000128
512.0,1038.0310000000002,18342.0,88.45100000000001,62.138,0.8837527129771101,0.4671727956740137,0.027031856904841414,28.066000000000017
520.0,1039.2083333333337,18350.0,88.427,62.15666666666667,0.8838947788104727,0.46687951938733857,0.027450580471698745,28.530000000000094
528.0,1040.3856666666666,18358.0,88.403,62.175333333333334,0.884036592238101,0.4665861182514062,0.02786929922208735,28.993999999999982
536.0,1041.506,18366.0,88.379,62.194,0.8841781531688747,0.4662925924510487,0.02828801308253899,29.463000000000054
544.0,1042.6073333333336,18374.0,88.355,62.21266666666667,0.8843194615118115,0.46599894217116666,0.028706721979586288,29.9336666666668
552.0,1043.7086666666667,18382.0,88.331,62.23133333333333,0.8844605171760668,0.46570516759672836,0.02912542583976273,30.40433333333335
560.0,1044.8100000000002,18390.0,88.307,62.25000000000001,0.8846013200709344,0.4654112689127695,0.0295441245896027,30.875000000000092
568.0,1045.9113333333337,18398.0,88.283,62.268666666666675,0.8847418701058459,0.4651172463043942,0.029962818155641464,31.345666666666837
576.0,1047.0126666666667,18406.0,88.25900000000001,62.287333333333336,0.8848821671903712,0.46482309995677373,0.030381506464414756,31.81633333333339
584.0,1048.1140000000003,18414.0,88.235,62.306000000000004,0.8850222112342182,0.46452883005514656,0.030800189442461018,32.287000000000134
592.0,1049.1983333333335,18422.0,88.21100000000001,62.324666666666666,0.8851620021472337,0.4642344367848189,0.031218867016316508,32.75866666666668
600.0,1050.2316666666668,18430.0,88.18700000000001,62.343333333333334,0.8853015398394024,0.463939920331164,0.031637539112521554,33.2333333333334
608.0,1051.2650000000003,18438.0,88.16300000000001,62.362,0.8854408242208469,0.4636452808796223,0.03205620565761565,33.70800000000011
616.0,1052.2983333333334,18446.0,88.13900000000001,62.38066666666666,0.885579855201829,0.4633505186157015,0.03247486657813972,34.18266666666664
624.0,1053.3316666666667,18454.0,88.11500000000001,62.39933333333334,0.8857186326927486,0.46305563372497566,0.03289352180063568,34.65733333333336
632.0,1054.3649999999998,18462.0,88.09100000000001,62.418,0.8858571566041442,0.46276062639308657,0.03331217125164643,35.13199999999989
640.0,1055.3983333333333,18470.0,88.06700000000001,62.43666666666667,0.8859954268466925,0.4624654968057419,0.0337308148577159,35.606666666666605
648.0,1056.4316666666666,18478.0,88.043,62.455333333333336,0.8861334433312094,0.4621702451487164,0.034149452545389036,36.081333333333326
656.0,1057.418,18486.0,88.01890000000002,62.474,0.886271152464198,0.46187484372433074,0.034569828527306515,36.560999999999865
664.0,1058.3886666666665,18494.0,87.99476666666668,62.492666666666665,0.886408588288897,0.46157931055860146,0.034990779813126795,37.042333333333275
672.0,1059.359333333333,18502.0,87.97063333333335,62.511333333333326,0.8865457683309619,0.4612836550266048,0.03541172489107149,37.52366666666649
680.0,1060.33,18510.0,87.94650000000001,62.529999999999994,0.8866826925009436,0.4609878773161072,0.035832663686459695,38.0049999999999
688.0,1061.3006666666668,18518.0,87.92236666666668,62.54866666666667,0.8868193607095344,0.460691977614942,0.03625359612461027,38.48633333333332
696.0,1062.2713333333331,18526.0,87.89823333333335,62.56733333333333,0.886955772867567,0.46039595611101,0.036674522130843226,38.96766666666653
704.0,1063.242,18534.0,87.87410000000001,62.586,0.887091928886015,0.46009981299227776,0.03709544163048101,39.44899999999994
712.0,1064.1983333333335,18542.0,87.84996666666667,62.60466666666667,0.8872278286759923,0.4598035484467791,0.03751635454884571,39.93100000000002
720.0,1065.1116666666665,18550.0,87.82583333333335,62.62333333333333,0.8873634721487538,0.4595071626626143,0.03793726081126145,40.41499999999991
728.0,1066.0249999999999,18558.0,87.80170000000001,62.642,0.8874988592156955,0.45921065582794973,0.038358160343053296,40.89899999999998
736.0,1066.938333333333,18566.0,87.77756666666667,62.660666666666664,0.8876339897883541,0.45891402813101867,0.03877905306954778,41.38299999999987
744.0,1067.8516666666665,18574.0,87.75343333333333,62.67933333333333,0.8877688637784072,0.45861727976011996,0.039199938916071916,41.86699999999994
752.0,1068.765,18582.0,87.7293,62.698,0.8879034810976736,0.45832041090361897,0.03962081780795487,42.35100000000002
760.0,1069.678333333333,18590.0,87.70516666666667,62.71666666666666,0.8880378416581128,0.45802342174994704,0.04004168967052592,42.8349999999999
768.0,1070.5916666666665,18598.0,87.68103333333333,62.73533333333334,0.888171945371826,0.45772631248760093,0.04046255442911713,43.31899999999998
776.0,1071.4679999999996,18606.0,87.65690000000001,62.754,0.8883057921510549,0.4574290833051441,0.04088341200906006,43.80699999999986
784.0,1072.3319999999999,18614.0,87.63276666666667,62.772666666666666,0.8884393819081825,0.45713173439120475,0.041304262335689325,44.29633333333327
792.0,1073.196,18622.0,87.60863333333333,62.791333333333334,0.8885727145557338,0.4568342659344773,0.04172510533433927,44.785666666666685
800.0,1074.0599999999997,18630.0,87.5845,62.809999999999995,0.8887057900063741,0.4565366781237213,0.042145940930346425,45.2749999999999
808.0,1074.924,18638.0,87.56036666666667,62.82866666666667,0.8888386081729106,0.45623897114776163,0.0425667690490484,45.76433333333331
816.0,1075.7879999999998,18646.0,87.53623333333334,62.84733333333333,0.8889711689682915,0.455941145195489,0.04298758961578416,46.25366666666653
824.0,1076.6519999999998,18654.0,87.5121,62.866,0.8891034723056073,0.45564320045585843,0.04340840255589398,46.74299999999994
832.0,1077.504,18662.0,87.48793333333333,62.88466666666667,0.8892354954016901,0.45534512549589096,0.04382978901206487,47.233333333333356
840.0,1078.3199999999997,18670.0,87.46366666666667,62.90333333333333,0.8893671916654814,0.4550468967385613,0.044252911290220714,47.72666666666657
848.0,1079.136,18678.0,87.4394,62.922000000000004,0.8894986284321152,0.4547485489270627,0.04467602563027181,48.21999999999998
856.0,1079.9519999999998,18686.0,87.41513333333334,62.940666666666665,0.889629805614453,0.4544500822523601,0.045099131956319746,48.713333333333196
864.0,1080.768,18694.0,87.39086666666668,62.95933333333333,0.8897607231255,0.45415149690548323,0.045522230192467546,49.20666666666661
872.0,1081.584,18702.0,87.3666,62.978,0.8898913808784047,0.4538527930775274,0.04594532026282012,49.700000000000024
880.0,1082.3999999999999,18710.0,87.34233333333334,62.99666666666666,0.8900217787864592,0.4535539709596531,0.04636840209148251,50.193333333333236
888.0,1083.2160000000001,18718.0,87.31806666666668,63.01533333333334,0.8901519167630991,0.45325503074308565,0.046791475602562596,50.686666666666646
896.0,1084.0000000000002,18726.0,87.2938,63.034000000000006,0.8902817947219037,0.452955972619116,0.04721454072016948,51.18200000000006
904.0,1084.7733333333333,18734.0,87.26953333333334,63.05266666666667,0.8904114125765964,0.4526567967790997,0.047637597368413144,51.67799999999994
912.0,1085.5466666666669,18742.0,87.24526666666667,63.071333333333335,0.8905407702410438,0.45235750341445663,0.04806064547140596,52.17400000000002
920.0,1086.32,18750.0,87.221,63.089999999999996,0.8906698676292567,0.45205809271667213,0.048483684953260955,52.6699999999999
928.0,1087.0933333333332,18758.0,87.19673333333334,63.108666666666664,0.8907987046553895,0.4517585648772955,0.04890671573809335,53.16599999999998
936.0,1087.8666666666668,18766.0,87.17246666666666,63.12733333333333,0.8909272812337405,0.4514589200879408,0.04932973775001994,53.66200000000006
944.0,1088.6399999999999,18774.0,87.1482,63.145999999999994,0.8910555972787522,0.4511591585402866,0.04975275091315843,54.157999999999944
952.0,1089.4036666666668,18782.0,87.12393333333333,63.16466666666666,0.8911836527050109,0.45085928042607526,0.05017575515162899,54.65500000000002
960.0,1090.1383333333333,18790.0,87.09966666666666,63.18333333333332,0.891311447427247,0.45055928593711375,0.05059875038955251,55.1549999999999
968.0,1090.873,18798.0,87.0754,63.202,0.891438981360335,0.45025917526527254,0.05102173655105217,55.65499999999998
976.0,1091.6076666666668,18806.0,87.05113333333333,63.220666666666666,0.8915662544192935,0.4499589486024867,0.05144471356025274,56.15500000000006
984.0,1092.3423333333333,18814.0,87.02686666666666,63.23933333333333,0.8916932665192852,0.449658606140755,0.051867681341280024,56.654999999999944
992.0,1093.077,18822.0,87.00259999999999,63.257999999999996,0.8918200175756172,0.4493581480721391,0.052290639818262534,57.15500000000002
1000.0,1093.8116666666665,18830.0,86.97833333333334,63.27666666666666,0.891946507503741,0.44905757458876544,0.05271358891532872,57.6549999999999
1008.0,1094.5463333333332,18838.0,86.95406666666666,63.29533333333333,0.8920727362192522,0.4487568858828229,0.053136528556610906,58.15499999999998
1016.0,1095.2520000000002,18846.0,86.92979999999999,63.313,0.8921908764668175,0.4484716538832205,0.053559458666241566,58.65800000000006
1024.0,1095.9479999999999,18854.0,86.90553333333334,63.33033333333333,0.8923061581082155,0.44819150253154105,0.05398237916835489,59.16199999999994
1032.0,1096.644,18862.0,86.88126666666666,63.34766666666667,0.8924211918139183,0.4479112421259889,0.05440528998708812,59.666000000000025
1040.0,1097.34,18870.0,86.857,63.364999999999995,0.8925359775078895,0.447630872841224,0.05482819104657868,60.1699999999999
1048.0,1098.036,18878.0,86.83273333333334,63.38233333333333,0.8926505151142196,0.447350394851961,0.055251082270966624,60.67399999999998
1056.0,1098.7320000000002,18886.0,86.80846666666666,63.39966666666667,0.8927648045571267,0.44706980833297044,0.05567396358439379,61.17800000000006
1064.0,1099.4279999999999,18894.0,86.78420000000001,63.416999999999994,0.8928788457609568,0.44678911345907835,0.05609683491100289,61.681999999999945
1072.0,1100.116,18902.0,86.7599,63.434666666666665,0.8929952069046441,0.4465031004716088,0.05652027702136898,62.18633333333336
1080.0,1100.7800000000002,18910.0,86.7355,63.45333333333334,0.893119014820731,0.4462013457211769,0.05694545146241047,62.69166666666677
1088.0,1101.444,18918.0,86.7111,63.472,0.8932425589036171,0.4458994768238121,0.05737061557599435,63.19699999999998
1096.0,1102.1080000000002,18926.0,86.6867,63.49066666666667,0.8933658390696974,0.44559749397415727,0.05779576928501388,63.70233333333339
1104.0,1102.772,18934.0,86.6623,63.50933333333333,0.8934888552355118,0.44529539736691887,0.05822091251236489,64.2076666666666
1112.0,1103.4360000000001,18942.0,86.6379,63.528,0.8936116073177485,0.44499318719686576,0.058646045180944247,64.71300000000002
1120.0,1104.1000000000001,18950.0,86.61349999999999,63.546666666666674,0.8937340952332415,0.44469086365882987,0.0590711672136518,65.21833333333343
1128.0,1104.7640000000001,18958.0,86.5891,63.565333333333335,0.8938563188989721,0.44438842694770603,0.05949627853338779,65.72366666666665
1136.0,1105.4040000000002,18966.0,86.5647,63.584,0.8939782782320684,0.44408587725845106,0.059921379063055766,66.23200000000006
1144.0,1106.036,18974.0,86.5403,63.602666666666664,0.8940999731498053,0.4437832147860846,0.06034646872556095,66.74133333333327
1152.0,1106.6680000000001,18982.0,86.5159,63.62133333333333,0.8942214035696051,0.4434804397256886,0.06077154744380993,67.25066666666669
