time,flux,t,zenith,azimuth,sn1,sn2,sn3,sun_h
0.0,166.77666666668443,26110.0,89.912,119.13,0.8735164283675856,-0.4867922456412927,0.0015358891379051943,0.256666666666694
8.0,300.19799999997866,26118.0,89.912,119.13,0.8735164283675856,-0.4867922456412927,0.0015358891379051943,0.46199999999996716
16.0,433.6193333333262,26126.0,89.912,119.13,0.8735164283675856,-0.4867922456412927,0.0015358891379051943,0.6673333333333223
24.0,567.0406666666205,26134.0,89.912,119.13,0.8735164283675856,-0.4867922456412927,0.0015358891379051943,0.8726666666665955
32.0,700.461999999968,26142.0,89.912,119.13,0.8735164283675856,-0.4867922456412927,0.0015358891379051943,1.0779999999999508
40.0,833.8833333333156,26150.0,89.912,119.13,0.8735164283675856,-0.4867922456412927,0.0015358891379051943,1.283333333333306
48.0,967.3046666666098,26158.0,89.912,119.13,0.8735164283675856,-0.4867922456412927,0.0015358891379051943,1.488666666666579
56.0,1002.4349999999995,26166.0,89.89430000000002,119.14399999999999,0.8733970004289131,-0.48700541712650547,0.0018448119729385568,1.8569999999999156
64.0,1004.8016666666658,26174.0,89.87070000000001,119.16266666666665,0.8732375526214524,-0.48728952785490365,0.0022567088073542217,2.2796666666665257
72.0,1007.1683333333332,26182.0,89.84710000000001,119.18133333333333,0.8730778642685082,-0.4875735036589997,0.002668605258897312,2.7023333333333053
80.0,1009.5350000000004,26190.0,89.8235,119.2,0.8729179354681957,-0.4878573443640509,0.003080501257686037,3.1250000000000844
88.0,1011.9016666666668,26198.0,89.7999,119.21866666666666,0.8727577663187596,-0.4881410497953874,0.00349239673383735,3.5476666666666947
96.0,1014.2683333333341,26206.0,89.77629999999999,119.23733333333334,0.8725973569185728,-0.4884246197784123,0.0039042916174698477,3.970333333333474
104.0,1016.6350000000004,26214.0,89.75269999999999,119.256,0.872436707366138,-0.4887080541386007,0.004316185838701117,4.393000000000084
112.0,1018.9420000000009,26222.0,89.72913333333332,119.275,0.8722729753081794,-0.48899642873323523,0.004727497557734227,4.818666666666852
120.0,1021.0700000000011,26230.0,89.70566666666666,119.295,0.872100468447232,-0.48929989118749895,0.0051370631707506435,5.253333333333565
128.0,1023.1980000000004,26238.0,89.6822,119.315,0.8719277097490481,-0.4896032106619343,0.005546627922034616,5.688000000000104
136.0,1025.3260000000007,26246.0,89.65873333333333,119.33500000000001,0.871754699321442,-0.4899063869668411,0.005956191742882226,6.122666666666817
144.0,1027.454,26254.0,89.63526666666667,119.355,0.8715814372723731,-0.49020941991260014,0.006365754564590375,6.557333333333356
152.0,1029.5820000000003,26262.0,89.61179999999999,119.375,0.8714079237099436,-0.49051230930967477,0.006775316318455689,6.992000000000069
160.0,1031.7100000000005,26270.0,89.58833333333332,119.39500000000001,0.8712341587424001,-0.4908150549686106,0.00718487693577453,7.426666666666782
168.0,1033.8379999999997,26278.0,89.56486666666666,119.415,0.8710601424781329,-0.49111765670003493,0.007594436347844115,7.861333333333322
176.0,1035.815,26286.0,89.54129999999999,119.434,0.8708944396242692,-0.4914049075481812,0.008005739759294245,8.304000000000054
184.0,1037.741666666667,26294.0,89.51769999999999,119.45266666666667,0.8707313510048315,-0.4916869512105225,0.008417623572134037,8.749333333333457
192.0,1039.6683333333333,26302.0,89.4941,119.47133333333333,0.8705680233468406,-0.4919688572974238,0.008829505956841985,9.194666666666684
200.0,1041.5950000000003,26310.0,89.4705,119.49000000000001,0.8704044567503697,-0.49225062563525696,0.009241386843538908,9.64000000000009
208.0,1043.5216666666665,26318.0,89.4469,119.50866666666667,0.8702406513156208,-0.49253225605046724,0.009653266162344543,10.085333333333315
216.0,1045.4483333333335,26326.0,89.4233,119.52733333333333,0.8700766071429239,-0.49281374836957437,0.010065143843379785,10.53066666666672
224.0,1047.3750000000005,26334.0,89.3997,119.546,0.8699123243327368,-0.49309510241917265,0.010477019816765805,10.976000000000125
232.0,1049.2596666666666,26342.0,89.37613333333334,119.565,0.8697449381337885,-0.4933813811308127,0.010888312270695132,11.42366666666669
240.0,1051.0183333333337,26350.0,89.35266666666666,119.58500000000001,0.8695687115060592,-0.4936827061806809,0.011297857664688686,11.878333333333455
248.0,1052.777,26358.0,89.3292,119.605,0.8693922346504701,-0.493983885453219,0.011707401163487952,12.333000000000037
256.0,1054.535666666667,26366.0,89.30573333333334,119.625,0.8692155076769592,-0.49428491875994945,0.012116942698393463,12.787666666666802
264.0,1056.2943333333342,26374.0,89.28226666666666,119.64500000000001,0.8690385306956075,-0.4945858059124776,0.01252648220070542,13.242333333333564
272.0,1058.0530000000006,26382.0,89.2588,119.665,0.8688613038166394,-0.49488654672249216,0.012936019601723912,13.697000000000147
280.0,1059.8116666666676,26390.0,89.23533333333333,119.685,0.8686838271504214,-0.49518714100176603,0.013345554832750052,14.151666666666909
288.0,1061.570333333334,26398.0,89.21186666666667,119.705,0.8685061008074636,-0.4954875885621557,0.013755087825085098,14.606333333333492
296.0,1063.2200000000007,26406.0,89.18839999999999,119.724,0.8683367778972223,-0.4957727339553228,0.0141646185100309,15.067000000000222
304.0,1064.8333333333342,26414.0,89.16493333333332,119.74266666666666,0.8681701016768686,-0.49605268752308657,0.014574146818888807,15.52966666666694
312.0,1066.4466666666672,26422.0,89.14146666666666,119.76133333333333,0.8680031896027042,-0.4963325018497798,0.014983672682961904,15.99233333333347
320.0,1068.0600000000006,26430.0,89.118,119.78,0.8678360417757953,-0.4966121767645178,0.015393196033552792,16.455000000000187
328.0,1069.6733333333334,26438.0,89.09453333333333,119.79866666666666,0.8676686582973344,-0.4968917120964894,0.01580271680196472,16.91766666666672
336.0,1071.2866666666669,26446.0,89.07106666666667,119.81733333333334,0.8675010392686394,-0.49717110767495876,0.01621223491950137,17.380333333333432
344.0,1072.9000000000003,26454.0,89.04759999999999,119.836,0.8673331847911545,-0.49745036332926423,0.016621750317466866,17.84300000000015
352.0,1074.482,26462.0,89.02413333333334,119.85499999999999,0.8671621992790435,-0.49773452384241773,0.017031262927165565,18.307333333333354
360.0,1075.9700000000003,26470.0,89.00066666666666,119.875,0.8669822830506972,-0.49803367388614267,0.017440772679903186,18.776666666666763
368.0,1077.4580000000005,26478.0,88.9772,119.89500000000001,0.8668021182326205,-0.4983326753775681,0.01785027950698459,19.24600000000017
376.0,1078.9460000000001,26486.0,88.95373333333333,119.915,0.8666217049368576,-0.49863152812946016,0.018259783339716014,19.71533333333339
384.0,1080.4340000000004,26494.0,88.93026666666665,119.935,0.8664410432755948,-0.4989302319546703,0.01866928410940421,20.1846666666668
392.0,1081.922,26502.0,88.9068,119.955,0.8662601333611604,-0.49922878666613524,0.019078781747355316,20.65400000000002
400.0,1083.4100000000003,26510.0,88.88333333333333,119.97500000000001,0.8660789753060242,-0.4995271920768769,0.019488276184878233,21.123333333333427
408.0,1084.8980000000006,26518.0,88.85986666666666,119.995,0.865897569222799,-0.49982544800000206,0.019897767353280166,21.592666666666837
416.0,1086.303,26526.0,88.8364,120.014,0.8657246438950704,-0.5001084445794239,0.02030725518386998,22.06700000000004
424.0,1087.6803333333335,26534.0,88.81293333333333,120.03266666666667,0.8655543920458536,-0.5003862619118845,0.020716739607956888,22.543000000000088
432.0,1089.0576666666664,26542.0,88.78946666666667,120.05133333333333,0.8653839058967635,-0.5006639374069645,0.021126220556850442,23.01899999999995
440.0,1090.435,26550.0,88.76599999999999,120.07,0.8652131855507781,-0.5009414708949242,0.021535697961861666,23.495
448.0,1091.8123333333335,26558.0,88.74253333333333,120.08866666666667,0.8650422311110003,-0.5012188622060993,0.02194517175430085,23.971000000000053
456.0,1093.1896666666664,26566.0,88.71906666666666,120.10733333333333,0.8648710426806585,-0.5014961111709012,0.02235464186547978,24.44699999999991
464.0,1094.5669999999998,26574.0,88.6956,120.126,0.8646996203631049,-0.5017732176198177,0.02276410822671063,24.922999999999963
472.0,1095.9196666666662,26582.0,88.67213333333333,120.145,0.8645250434376287,-0.5020552109947332,0.02317357076930621,25.400333333333162
480.0,1097.198333333333,26590.0,88.64866666666667,120.16499999999999,0.8643414620145237,-0.502352145178813,0.02358302942457974,25.881666666666572
488.0,1098.4769999999999,26598.0,88.6252,120.185,0.8641576336708285,-0.502648928054165,0.023992484123845775,26.362999999999982
496.0,1099.7556666666662,26606.0,88.60173333333334,120.205,0.8639735585206803,-0.5029455594348224,0.02440193479841885,26.8443333333332
504.0,1101.0343333333333,26614.0,88.57826666666668,120.225,0.8637892366783556,-0.5032420391349067,0.0248113813796144,27.32566666666661
512.0,1102.3129999999996,26622.0,88.55480000000001,120.24499999999999,0.8636046682582735,-0.5035383669686251,0.025220823798748553,27.806999999999828
520.0,1103.5916666666665,26630.0,88.53133333333335,120.265,0.8634198533749929,-0.5038345427502725,0.025630261987137914,28.288333333333238
528.0,1104.8703333333333,26638.0,88.50786666666667,120.28500000000001,0.8632347921432146,-0.5041305662942301,0.026039695876100676,28.769666666666648
536.0,1106.0849999999996,26646.0,88.48450000000001,120.30499999999999,0.8630495245308715,-0.5044264607078981,0.026447380678246923,29.254999999999846
544.0,1107.2783333333332,26654.0,88.46116666666668,120.325,0.8628640255003726,-0.5047222111491322,0.026854479515029263,29.741666666666564
552.0,1108.4716666666666,26662.0,88.43783333333334,120.345,0.8626782820838215,-0.505017809794374,0.027261573898070213,30.228333333333282
560.0,1109.6649999999995,26670.0,88.41450000000002,120.365,0.8624922943954286,-0.5053132564600432,0.02766866375985339,30.714999999999804
568.0,1110.8583333333331,26678.0,88.39116666666669,120.38499999999999,0.8623060625495431,-0.5056085509626463,0.028075749032864514,31.201666666666522
576.0,1112.051666666666,26686.0,88.36783333333337,120.40499999999999,0.8621195866606532,-0.505903693118776,0.028482829649589595,31.68833333333305
584.0,1113.2449999999994,26694.0,88.34450000000002,120.42499999999998,0.8619328668433859,-0.506198682745112,0.028889905542515876,32.17499999999976
592.0,1114.4189999999996,26702.0,88.32113333333335,120.44466666666666,0.8617488351634249,-0.5064884975788769,0.029297558170815897,32.662333333333166
600.0,1115.5349999999994,26710.0,88.29766666666669,120.46333333333332,0.8615733629084401,-0.5067630979259492,0.029706950485301843,33.15166666666641
608.0,1116.6509999999996,26718.0,88.27420000000002,120.48199999999999,0.8613976586962269,-0.5070375526419921,0.03011633781650411,33.64099999999984
616.0,1117.7669999999996,26726.0,88.25073333333336,120.50066666666666,0.8612217226325557,-0.5073118615589912,0.030525720095748766,34.130333333333084
624.0,1118.8829999999998,26734.0,88.22726666666668,120.51933333333332,0.8610455548233218,-0.5075860245090098,0.030935097254362946,34.619666666666525
632.0,1119.999,26742.0,88.20380000000002,120.538,0.8608691553745428,-0.5078600413241897,0.03134446922367375,35.10899999999996
640.0,1121.1149999999998,26750.0,88.18033333333335,120.55666666666666,0.8606925243923607,-0.50813391183675,0.03175383593501049,35.5983333333332
648.0,1122.231,26758.0,88.15686666666667,120.57533333333333,0.8605156619830409,-0.5084076358789893,0.032163197319702685,36.08766666666664
656.0,1123.2939999999996,26766.0,88.13350000000001,120.595,0.8603297388941737,-0.5086962578803764,0.03257080890589647,36.58099999999986
664.0,1124.3393333333331,26774.0,88.11016666666667,120.615,0.8601406313357001,-0.5089897413656701,0.03297783361489238,37.075666666666606
672.0,1125.3846666666666,26782.0,88.08683333333335,120.635,0.859951281094583,-0.5092830703485657,0.03338485285460474,37.57033333333335
680.0,1126.4299999999998,26790.0,88.0635,120.655,0.8597616882870802,-0.5095762446467726,0.033791866557531185,38.064999999999905
688.0,1127.4753333333333,26798.0,88.04016666666666,120.675,0.859571853029588,-0.5098692640780887,0.03419887465616894,38.55966666666665
696.0,1128.5206666666663,26806.0,88.01683333333334,120.695,0.8593817754386406,-0.5101621284603994,0.03460587708301684,39.0543333333332
704.0,1129.5659999999998,26814.0,87.9935,120.715,0.8591914556309089,-0.5104548376116792,0.03501287377057529,39.54899999999994
712.0,1130.596,26822.0,87.97016666666667,120.735,0.8590008937232027,-0.5107473913499897,0.03541986465134414,40.04433333333335
720.0,1131.5799999999997,26830.0,87.94683333333334,120.755,0.858810089832469,-0.5110397894934817,0.035826849657825496,40.541666666666536
728.0,1132.5639999999999,26838.0,87.9235,120.77499999999999,0.8586190440757923,-0.5113320318603947,0.036233828722522246,41.03899999999992
736.0,1133.548,26846.0,87.90016666666666,120.795,0.8584277565703943,-0.5116241182690566,0.03664080177793801,41.53633333333331
744.0,1134.5319999999997,26854.0,87.87683333333334,120.815,0.8582362274336351,-0.5119160485378837,0.03704776875657678,42.03366666666649
752.0,1135.5159999999998,26862.0,87.85350000000001,120.835,0.8580444567830112,-0.5122078224853818,0.03745472959094462,42.53099999999988
760.0,1136.4999999999995,26870.0,87.83016666666668,120.85499999999999,0.8578524447361568,-0.5124994399301451,0.03786168421354842,43.028333333333066
768.0,1137.4839999999997,26878.0,87.80683333333334,120.87499999999999,0.8576601914108435,-0.5127909006908572,0.03826863255689565,43.52566666666645
776.0,1138.4239999999998,26886.0,87.7835,120.89399999999999,0.8574766517681828,-0.513067238873604,0.038675574553495046,44.0259999999999
784.0,1139.349333333333,26894.0,87.76016666666668,120.91266666666665,0.8572958674813622,-0.5133384390447099,0.03908251013585616,44.52733333333317
792.0,1140.2746666666667,26902.0,87.73683333333334,120.93133333333333,0.8571148553468513,-0.5136094906955417,0.039489439236490516,45.02866666666663
800.0,1141.1999999999998,26910.0,87.71350000000001,120.94999999999999,0.8569336154722854,-0.5138803936614877,0.03989636178790915,45.529999999999895
808.0,1142.1253333333334,26918.0,87.69016666666667,120.96866666666666,0.8567521479654204,-0.514151147778016,0.040303277722625735,46.031333333333365
816.0,1143.050666666667,26926.0,87.66683333333333,120.98733333333334,0.8565704529341334,-0.5144217528806734,0.04071018697315438,46.53266666666683
824.0,1143.9760000000003,26934.0,87.6435,121.006,0.8563885304864217,-0.5146922088050858,0.041117089472009635,47.0340000000001
832.0,1144.8886666666672,26942.0,87.6202,121.025,0.8562034054870348,-0.5149675090361204,0.041523403877062076,47.53566666666688
840.0,1145.7633333333335,26950.0,87.59700000000001,121.045,0.8560091203986295,-0.5152576358731149,0.04192796762082467,48.0383333333334
848.0,1146.6380000000004,26958.0,87.5738,121.065,0.8558145967716108,-0.5155476052925982,0.04233252449019184,48.54100000000012
856.0,1147.512666666667,26966.0,87.5506,121.08500000000001,0.8556198347241297,-0.5158374171158701,0.04273707441883375,49.04366666666684
864.0,1148.3873333333333,26974.0,87.52740000000001,121.105,0.8554248343744737,-0.516127071164318,0.04314161734042106,49.54633333333336
872.0,1149.2620000000002,26982.0,87.50420000000001,121.125,0.8552295958410641,-0.5164165672594199,0.043546153188626445,50.04900000000008
880.0,1150.1366666666665,26990.0,87.48100000000001,121.145,0.8550341192424566,-0.516705905222743,0.04395068189712288,50.5516666666666
888.0,1151.0113333333334,26998.0,87.4578,121.165,0.8548384046973424,-0.5169950848759435,0.044355203399585375,51.05433333333332
896.0,1151.8500000000001,27006.0,87.4346,121.185,0.8546424523245464,-0.5172841060407675,0.044759717629689465,51.55900000000004
904.0,1152.6766666666665,27014.0,87.41140000000001,121.205,0.8544462622430282,-0.5175729685390505,0.04516422452111165,52.064333333333224
912.0,1153.5033333333333,27022.0,87.38820000000001,121.225,0.8542498345718816,-0.5178616721927184,0.045568724007530974,52.56966666666661
920.0,1154.3300000000002,27030.0,87.36500000000001,121.245,0.8540531694303348,-0.5181502168237861,0.04597321602262636,53.075
928.0,1155.1566666666665,27038.0,87.3418,121.26499999999999,0.8538562669377506,-0.5184386022543592,0.046377700500078396,53.580333333333186
936.0,1155.9833333333331,27046.0,87.3186,121.285,0.8536591272136254,-0.5187268283066332,0.04678217737356891,54.08566666666657
944.0,1156.8099999999997,27054.0,87.2954,121.30499999999998,0.8534617503775899,-0.5190148948028934,0.04718664657678075,54.59099999999976
952.0,1157.6256666666666,27062.0,87.2722,121.32499999999999,0.8532641365494086,-0.5193028015655162,0.04759110804339869,55.09699999999983
960.0,1158.4083333333333,27070.0,87.249,121.345,0.8530662858489804,-0.5195905484169675,0.04799556170710811,55.60499999999997
968.0,1159.1909999999998,27078.0,87.22579999999999,121.365,0.8528681983963378,-0.5198781351798039,0.048400007501595885,56.1129999999999
976.0,1159.9736666666668,27086.0,87.20259999999999,121.38499999999999,0.8526698743116473,-0.5201655616766732,0.04880444536054996,56.62100000000003
984.0,1160.7563333333333,27094.0,87.1794,121.405,0.8524713137152088,-0.520452827730313,0.049208875217660035,57.12899999999997
992.0,1161.5390000000002,27102.0,87.1562,121.425,0.8522725167274563,-0.5207399331635523,0.04961329700661711,57.6370000000001
1000.0,1162.321666666667,27110.0,87.13299999999998,121.44500000000001,0.8520734834689571,-0.521026877799311,0.05001771066111328,58.14500000000024
1008.0,1163.1043333333334,27118.0,87.10979999999999,121.465,0.8518742140604123,-0.5213136614605992,0.05042211611484111,58.65300000000017
1016.0,1163.8570000000002,27126.0,87.08659999999999,121.48500000000001,0.851674708622656,-0.5216002839705195,0.050826513301496484,59.16200000000025
1024.0,1164.5996666666667,27134.0,87.0634,121.50500000000001,0.8514749672766565,-0.5218867451522643,0.051230902154774875,59.67133333333343
1032.0,1165.3423333333335,27142.0,87.0402,121.525,0.8512749901435148,-0.5221730448291181,0.05163528260837423,60.180666666666816
1040.0,1166.0850000000003,27150.0,87.017,121.54500000000002,0.851074777344465,-0.5224591828244566,0.05203965459599299,60.690000000000204
1048.0,1166.8276666666666,27158.0,86.99380000000001,121.565,0.8508743290008755,-0.5227451589617466,0.05244401805133165,61.19933333333339
1056.0,1167.5703333333333,27166.0,86.9706,121.58500000000001,0.8506736452342462,-0.5230309730645473,0.05284837290809209,61.70866666666678
1064.0,1168.3129999999999,27174.0,86.9474,121.605,0.8504727261662113,-0.5233166249565089,0.053252719099977176,62.21799999999996
1072.0,1169.0463333333332,27182.0,86.9242,121.625,0.8502715719185379,-0.5236021144613736,0.05365705656069118,62.727666666666686
1080.0,1169.7516666666668,27190.0,86.901,121.64500000000001,0.8500701826131253,-0.5238874414029759,0.05406138522394048,63.238333333333436
1088.0,1170.4569999999999,27198.0,86.87780000000001,121.665,0.8498685583720064,-0.5241726056052416,0.054465705023432,63.74899999999998
1096.0,1171.1623333333334,27206.0,86.8546,121.685,0.8496666993173465,-0.5244576068921888,0.05487001589287502,64.25966666666673
1104.0,1171.8676666666668,27214.0,86.8314,121.705,0.8494646055714435,-0.5247424450879281,0.055274317765979374,64.77033333333348
1112.0,1172.573,27222.0,86.8082,121.725,0.8492622772567286,-0.5250271200166622,0.05567861057645728,65.28100000000002
1120.0,1173.2783333333334,27230.0,86.785,121.745,0.8490597144957646,-0.5253116315026864,0.056082894258021765,65.79166666666677
1128.0,1173.9836666666667,27238.0,86.76180000000001,121.765,0.8488569174112477,-0.525595979370388,0.05648716874438713,66.30233333333332
1136.0,1174.6630000000002,27246.0,86.7387,121.785,0.8486539705278953,-0.5258802157450496,0.05688969146671836,66.81500000000008
1144.0,1175.3336666666669,27254.0,86.71563333333333,121.805,0.8484508190532184,-0.5261643065179391,0.057291624120974556,67.32833333333353
1152.0,1176.0043333333335,27262.0,86.69256666666666,121.825,0.8482474351685206,-0.5264482342150099,0.05769354748951185,67.84166666666677
1160.0,1176.6750000000004,27270.0,86.66949999999999,121.84500000000001,0.8480438189958929,-0.5267319986626294,0.05809546150718704,68.3550000000002
