time,flux,t,zenith,azimuth,sn1,sn2,sn3,sun_h
0.0,5.2007997908274004e-11,22440.0,89.91799999999999,90.34,0.9999813690592444,-0.005934078552482738,0.0014311694980704405,7.407408020298675e-14
8.0,130.12400000006588,22448.0,89.91799999999999,90.34,0.9999813690592444,-0.005934078552482738,0.0014311694980704405,0.18533333333342714
16.0,260.24800000002773,22456.0,89.91799999999999,90.34,0.9999813690592444,-0.005934078552482738,0.0014311694980704405,0.3706666666667061
24.0,390.37200000004157,22464.0,89.91799999999999,90.34,0.9999813690592444,-0.005934078552482738,0.0014311694980704405,0.5560000000000592
32.0,520.4960000000034,22472.0,89.91799999999999,90.34,0.9999813690592444,-0.005934078552482738,0.0014311694980704405,0.7413333333333382
40.0,650.6200000000173,22480.0,89.91799999999999,90.34,0.9999813690592444,-0.005934078552482738,0.0014311694980704405,0.9266666666666913
48.0,780.7440000000312,22488.0,89.91799999999999,90.34,0.9999813690592444,-0.005934078552482738,0.0014311694980704405,1.1120000000000443
56.0,910.867999999993,22496.0,89.91799999999999,90.34,0.9999813690592444,-0.005934078552482738,0.0014311694980704405,1.2973333333333232
64.0,977.2500000000001,22504.0,89.90453333333332,90.35000000000001,0.9999799541432957,-0.006108605911166341,0.0016662068882700933,1.6266666666666918
72.0,979.8899999999993,22512.0,89.8776,90.36999999999999,0.9999768672059858,-0.006457658613591149,0.002136281379547076,2.0999999999998864
80.0,982.5299999999996,22520.0,89.85066666666667,90.39,0.9999734374633543,-0.006806708401157852,0.0026063553987686412,2.57333333333327
88.0,985.17,22528.0,89.82373333333334,90.41,0.9999696649178716,-0.00715575499994413,0.003076428842061701,3.0466666666666544
96.0,987.8099999999991,22536.0,89.7968,90.42999999999999,0.9999655495722337,-0.007504798136030781,0.0035465016055537383,3.5199999999998495
104.0,990.4499999999995,22544.0,89.76986666666667,90.44999999999999,0.9999610914293612,-0.00785383753550065,0.004016573585372386,3.993333333333233
112.0,993.0899999999987,22552.0,89.74293333333335,90.46999999999998,0.9999562904924004,-0.008202872924439079,0.004486644677645006,4.466666666666428
120.0,995.729999999999,22560.0,89.71600000000002,90.48999999999998,0.999951146764723,-0.008551904028934073,0.00495671477850049,4.939999999999811
128.0,998.0713333333331,22568.0,89.68893333333334,90.50866666666666,0.9999458544823197,-0.00887766066837986,0.005429110855454775,5.429333333333268
136.0,1000.412666666666,22576.0,89.66186666666668,90.52733333333332,0.9999402329262765,-0.00920341271327342,0.00590150572082591,5.918666666666536
144.0,1002.754,22584.0,89.6348,90.54599999999999,0.9999342821003278,-0.009529159910945084,0.006373899269193668,6.408
152.0,1005.095333333334,22592.0,89.60773333333333,90.56466666666667,0.9999280020084103,-0.009854902008727504,0.00684629139513567,6.897333333333464
160.0,1007.436666666667,22600.0,89.58066666666666,90.58333333333333,0.9999213926546643,-0.01018063875395656,0.007318681993231409,7.3866666666667316
168.0,1009.7780000000009,22608.0,89.55359999999999,90.602,0.9999144540434335,-0.010506369893972262,0.0077910709580605,7.876000000000195
176.0,1012.1193333333339,22616.0,89.52653333333332,90.62066666666666,0.9999071861792641,-0.010832095176117192,0.008263458184202252,8.365333333333464
184.0,1014.3393333333343,22624.0,89.49946666666665,90.64,0.9998994591721551,-0.011169448706995318,0.008735843566237255,8.862000000000227
192.0,1016.4380000000011,22632.0,89.47239999999998,90.66000000000001,0.9998912612514264,-0.011518429952538748,0.009208226998745617,9.366000000000282
200.0,1018.5366666666672,22640.0,89.44533333333332,90.68,0.9998827183921706,-0.011867404187433041,0.009680608376308329,9.870000000000134
208.0,1020.6353333333341,22648.0,89.41826666666665,90.7,0.999873830600244,-0.012216371135510905,0.010152987593507506,10.374000000000187
216.0,1022.7340000000002,22656.0,89.3912,90.72,0.9998645978817309,-0.012565330520609694,0.01062536454492419,10.878000000000041
224.0,1024.8326666666671,22664.0,89.36413333333333,90.74000000000001,0.9998550202429427,-0.012914282066572113,0.011097739125141485,11.382000000000094
232.0,1026.931333333334,22672.0,89.33706666666666,90.76,0.9998450976904191,-0.013263225497245394,0.011570111228742354,11.886000000000148
240.0,1029.03,22680.0,89.31,90.78,0.9998348302309273,-0.013612160536482988,0.01204248075030965,12.39
248.0,1030.9260000000004,22688.0,89.28293333333333,90.79866666666668,0.999824542489984,-0.013937819938308428,0.012514847584428135,12.906000000000084
256.0,1032.822,22696.0,89.25586666666668,90.81733333333334,0.9998139255542094,-0.01426347089846933,0.012987211625682279,13.42199999999996
264.0,1034.718,22704.0,89.2288,90.836,0.999802979430429,-0.014589113164359966,0.0134595727686574,13.938000000000041
272.0,1036.6140000000005,22712.0,89.20173333333334,90.85466666666667,0.9997917041256708,-0.014914746483380127,0.013931930907939682,14.454000000000125
280.0,1038.51,22720.0,89.17466666666668,90.87333333333333,0.9997800996471665,-0.01524037060293457,0.014404285938115097,14.970000000000002
288.0,1040.4060000000004,22728.0,89.14760000000001,90.89200000000001,0.9997681660023505,-0.015565985270434884,0.014876637753771639,15.486000000000084
296.0,1042.302,22736.0,89.12053333333334,90.91066666666667,0.9997559031988608,-0.01589159023329769,0.01534898624949735,16.00199999999996
304.0,1044.1126666666669,22744.0,89.09346666666667,90.92933333333333,0.9997433112445375,-0.01621718523894653,0.015821331319880578,16.52333333333339
312.0,1045.8380000000006,22752.0,89.0664,90.94800000000001,0.999730390147425,-0.016542770034811288,0.01629367285951109,17.05000000000017
320.0,1047.5633333333335,22760.0,89.03933333333333,90.96666666666667,0.99971713991577,-0.016868344368327595,0.016766010762979452,17.57666666666674
328.0,1049.2886666666673,22768.0,89.01226666666666,90.98533333333334,0.9997035605580225,-0.01719390798693875,0.01723834492487637,18.103333333333516
336.0,1051.014000000001,22776.0,88.98519999999999,91.00400000000002,0.9996896520828356,-0.01751946063809414,0.017710675239794266,18.630000000000297
344.0,1052.7393333333341,22784.0,88.95813333333332,91.02266666666668,0.9996754144990654,-0.01784500206925012,0.01818300160232555,19.156666666666865
352.0,1054.4646666666677,22792.0,88.93106666666665,91.04133333333334,0.9996608478157712,-0.01817053202787071,0.018655323907064165,19.683333333333643
360.0,1056.1900000000007,22800.0,88.90399999999998,91.06000000000002,0.9996459520422153,-0.018496050261427227,0.019127642048604964,20.210000000000214
368.0,1057.7686666666675,22808.0,88.87679999999999,91.08000000000001,0.9996302433139107,-0.018844818115873643,0.019602282580127885,20.746000000000272
376.0,1059.3473333333343,22816.0,88.84959999999998,91.10000000000001,0.9996141876213426,-0.019193572931607086,0.020076918693920913,21.28200000000033
384.0,1060.9260000000006,22824.0,88.82239999999999,91.12,0.999597784975373,-0.01954231443030106,0.02055155028301552,21.818000000000172
392.0,1062.5046666666674,22832.0,88.7952,91.14,0.999581035387094,-0.01989104233363814,0.02102617724044553,22.35400000000023
400.0,1064.0833333333335,22840.0,88.768,91.16,0.9995639388678281,-0.020239756363310102,0.021500799459244924,22.89000000000007
408.0,1065.6620000000003,22848.0,88.7408,91.18,0.999546495429128,-0.02058845624101842,0.021975416832449194,23.42600000000013
416.0,1067.2406666666673,22856.0,88.7136,91.2,0.9995287050827766,-0.020937141688473406,0.02245002925309426,23.962000000000184
424.0,1068.756,22864.0,88.68646666666667,91.21933333333332,0.9995108421121102,-0.02127418316001318,0.022923473367153908,24.501333333333378
432.0,1070.2080000000003,22872.0,88.6594,91.238,0.9994929199454762,-0.021599581075504703,0.023395749105953285,25.044000000000132
440.0,1071.66,22880.0,88.63233333333334,91.25666666666666,0.9994746687951127,-0.021924964678294686,0.023868019623661817,25.586666666666666
448.0,1073.1120000000003,22888.0,88.60526666666667,91.27533333333334,0.9994560886725635,-0.02225033371594802,0.024340284814885912,26.12933333333342
456.0,1074.5640000000005,22896.0,88.5782,91.294,0.9994371795895759,-0.022575687936037904,0.02481254457423317,26.672000000000175
464.0,1076.016,22904.0,88.55113333333334,91.31266666666666,0.9994179415580999,-0.02290102708614772,0.025284798796311517,27.214666666666712
472.0,1077.4680000000003,22912.0,88.52406666666667,91.33133333333333,0.9993983745902882,-0.023226350913870472,0.025757047375731437,27.757333333333463
480.0,1078.92,22920.0,88.49700000000001,91.35,0.9993784786984969,-0.02355165916680822,0.026229290207103798,28.3
488.0,1080.2613333333336,22928.0,88.4698,91.36866666666667,0.9993581917730311,-0.023876950108331366,0.026703853460910167,28.85200000000006
496.0,1081.6026666666671,22936.0,88.4426,91.38733333333333,0.9993375737472496,-0.024202224876482603,0.02717841069651855,29.404000000000117
504.0,1082.944,22944.0,88.4154,91.40599999999999,0.9993166246342319,-0.024527483216743723,0.027652961806978415,29.955999999999957
512.0,1084.2853333333335,22952.0,88.3882,91.42466666666667,0.9992953444472625,-0.024852724874607095,0.028127506685341943,30.508000000000013
520.0,1085.6266666666668,22960.0,88.36099999999999,91.44333333333333,0.999273733199832,-0.025177949595575032,0.028602045224661393,31.060000000000073
528.0,1086.9679999999998,22968.0,88.3338,91.46199999999999,0.9992517909056357,-0.02550315712516147,0.029076577317990668,31.61199999999991
536.0,1088.3093333333334,22976.0,88.30659999999999,91.48066666666666,0.9992295175785741,-0.025828347208891392,0.0295511028583858,32.163999999999966
544.0,1089.601333333333,22984.0,88.2794,91.49999999999999,0.9992066088550958,-0.026165145890892534,0.030025621738903396,32.718666666666486
552.0,1090.8439999999998,22992.0,88.2522,91.52,0.9991830529936611,-0.026513552105291376,0.030500133852602238,33.27599999999991
560.0,1092.0866666666666,23000.0,88.225,91.53999999999999,0.9991591504689182,-0.02686193900887297,0.030974639092542635,33.83333333333333
568.0,1093.3293333333331,23008.0,88.1978,91.55999999999999,0.9991349012969202,-0.027210306323561098,0.031449137351785776,34.39066666666653
576.0,1094.572,23016.0,88.1706,91.58,0.9991103054939502,-0.027558653771292834,0.03192362852339531,34.94799999999995
584.0,1095.8146666666662,23024.0,88.1434,91.6,0.9990853630765208,-0.027906981074018036,0.032398112500435595,35.505333333333155
592.0,1097.0573333333332,23032.0,88.1162,91.61999999999999,0.9990600740613754,-0.02825528795370098,0.03287258917597328,36.06266666666657
600.0,1098.3,23040.0,88.089,91.64,0.999034438465487,-0.028603574132319842,0.03334705844307643,36.62
608.0,1099.457333333333,23048.0,88.06193333333334,91.65866666666666,0.9990092084460187,-0.028928593619691138,0.03381919442041732,37.1826666666665
616.0,1100.6146666666664,23056.0,88.03486666666667,91.67733333333334,0.9989836497478362,-0.029253593175085316,0.0342913228505291,37.74533333333323
624.0,1101.7719999999995,23064.0,88.00780000000002,91.696,0.9989577623870001,-0.029578572546311424,0.03476344362804942,38.30799999999973
632.0,1102.9293333333328,23072.0,87.98073333333335,91.71466666666666,0.9989315463797735,-0.029903531481192173,0.03523555664761858,38.87066666666646
640.0,1104.0866666666664,23080.0,87.95366666666668,91.73333333333333,0.998905001742623,-0.030228469727563302,0.03570766180387723,39.43333333333319
648.0,1105.2439999999995,23088.0,87.92660000000002,91.752,0.9988781284922171,-0.030553387033273035,0.03617975899146869,39.99599999999969
656.0,1106.4013333333328,23096.0,87.89953333333335,91.77066666666666,0.9988509266454276,-0.030878283146183714,0.036651848105037826,40.55866666666641
664.0,1107.5193333333325,23104.0,87.87240000000003,91.78933333333332,0.9988233530440622,-0.03120315646537933,0.0371250917899681,41.12466666666627
672.0,1108.5979999999995,23112.0,87.84520000000002,91.80799999999999,0.9987954060556429,-0.031528006644432796,0.037599489879148344,41.69399999999973
680.0,1109.6766666666663,23120.0,87.81800000000001,91.82666666666667,0.9987671283231258,-0.031852834746809056,0.038073879494601205,42.263333333333186
688.0,1110.7553333333328,23128.0,87.79080000000002,91.84533333333333,0.9987385198643502,-0.032177640518276325,0.038548260529414145,42.83266666666641
696.0,1111.8339999999996,23136.0,87.76360000000001,91.86399999999999,0.9987095806973604,-0.032502423704617686,0.039022632876677246,43.401999999999866
704.0,1112.9126666666666,23144.0,87.7364,91.88266666666667,0.998680310840406,-0.032827184051630716,0.03949699642948185,43.97133333333332
712.0,1113.9913333333332,23152.0,87.70920000000001,91.90133333333333,0.998650710311941,-0.03315192130512696,0.03997135108092132,44.540666666666546
720.0,1115.07,23160.0,87.682,91.92,0.9986207791306252,-0.03347663521093376,0.04044569672409166,45.11
728.0,1116.0806666666663,23168.0,87.65480000000001,91.94,0.9985897304523712,-0.03382456376227979,0.0409200332520898,45.68199999999986
736.0,1117.0913333333333,23176.0,87.6276,91.96,0.9985583355077924,-0.03417246701512964,0.04139436055801629,46.253999999999955
744.0,1118.102,23184.0,87.6004,91.98,0.9985265943178975,-0.03452034469173601,0.04186867853497242,46.82600000000004
752.0,1119.1126666666664,23192.0,87.5732,92.0,0.9984945069039248,-0.03486819651436827,0.04234298707606181,47.39799999999991
760.0,1120.1233333333334,23200.0,87.54599999999999,92.02,0.9984620732873425,-0.03521602220531411,0.04281728607439085,47.97
768.0,1121.1339999999998,23208.0,87.5188,92.03999999999999,0.9984292934898487,-0.03556382148687877,0.043291575423067226,48.54199999999986
776.0,1122.1446666666666,23216.0,87.49159999999999,92.05999999999999,0.9983961675333706,-0.0359115940813854,0.04376585501520166,49.113999999999955
784.0,1123.1233333333334,23224.0,87.4644,92.07933333333332,0.9983631172690588,-0.036247723231278235,0.0442401247439062,49.6886666666667
792.0,1124.07,23232.0,87.4372,92.09799999999998,0.9983301544514902,-0.03657220982446229,0.04471438450229577,50.26599999999986
800.0,1125.0166666666667,23240.0,87.41,92.11666666666666,0.9982968611834636,-0.036896670471403194,0.045188634183487564,50.843333333333256
808.0,1125.963333333333,23248.0,87.3828,92.13533333333332,0.9982632374859374,-0.03722110491810508,0.045662873680600354,51.42066666666642
816.0,1126.9099999999996,23256.0,87.35560000000001,92.15399999999998,0.9982292833800749,-0.03754551291058967,0.04613710288675566,51.99799999999981
824.0,1127.8566666666666,23264.0,87.3284,92.17266666666666,0.9981949988872441,-0.03786989419489569,0.046611321695078,52.575333333333205
832.0,1128.8033333333328,23272.0,87.30120000000001,92.19133333333332,0.9981603840290186,-0.03819424851707832,0.047085529998692886,53.15266666666637
840.0,1129.7499999999995,23280.0,87.27400000000002,92.20999999999998,0.998125438827176,-0.038518575623210795,0.0475597276907291,53.72999999999977
848.0,1130.6406666666662,23288.0,87.24680000000001,92.22999999999999,0.9980892591186931,-0.03886610186163949,0.048033914664317806,54.311333333333025
856.0,1131.5313333333331,23296.0,87.2196,92.24999999999999,0.9980527334779946,-0.03921359869764735,0.048508090812592136,54.89266666666651
864.0,1132.422,23304.0,87.19239999999999,92.27,0.9980158619294858,-0.039561065853763865,0.0489822560286879,55.474
872.0,1133.3126666666665,23312.0,87.1652,92.28999999999999,0.9979786444978004,-0.039908503052537694,0.04945641020574313,56.05533333333326
880.0,1134.2033333333336,23320.0,87.13799999999999,92.31,0.9979410812078023,-0.04025591001653889,0.04993055323689903,56.63666666666675
888.0,1135.0940000000005,23328.0,87.11079999999998,92.33000000000001,0.997903172084585,-0.040603286468357314,0.050404685015298635,57.21800000000023
896.0,1135.984666666667,23336.0,87.08359999999999,92.35000000000001,0.9978649171534713,-0.04095063213060359,0.05087880543408752,57.79933333333349
904.0,1136.8493333333338,23344.0,87.05639999999998,92.36933333333334,0.9978267968958974,-0.04128633648672465,0.051352914386414504,58.382666666666935
912.0,1137.688,23352.0,87.02919999999999,92.388,0.997788823054867,-0.04161040060188272,0.051827011765430066,58.968000000000096
920.0,1138.5266666666669,23360.0,87.00199999999998,92.40666666666667,0.9977505191044611,-0.041934434905094825,0.05230109746428822,59.55333333333349
928.0,1139.3653333333336,23368.0,86.97479999999999,92.42533333333334,0.9977118850687539,-0.04225843914263994,0.052775171376144465,60.138666666666886
936.0,1140.2040000000002,23376.0,86.9476,92.444,0.9976729209720251,-0.04258241306081561,0.05324923339415833,60.724000000000046
944.0,1141.042666666667,23384.0,86.92039999999999,92.46266666666666,0.9976336268387583,-0.04290635640593965,0.05372328341149132,61.30933333333344
952.0,1141.8813333333333,23392.0,86.89320000000001,92.48133333333332,0.9975940026936425,-0.04323026892434928,0.054197321321306995,61.8946666666666
960.0,1142.72,23400.0,86.866,92.5,0.9975540485615708,-0.04355415036240182,0.0546713470167732,62.48
968.0,1143.5120000000002,23408.0,86.83879999999999,92.51866666666668,0.9975137644676408,-0.04387800046647403,0.05514536039105921,63.06800000000006
976.0,1144.3039999999999,23416.0,86.81160000000001,92.53733333333334,0.9974731504371553,-0.044201818982962916,0.05561936133733705,63.655999999999885
984.0,1145.096,23424.0,86.7844,92.556,0.9974322064956211,-0.044525605658286206,0.0560933497487829,64.24399999999996
992.0,1145.8879999999997,23432.0,86.75720000000001,92.57466666666666,0.9973909326687499,-0.04484936023888192,0.0565673255185742,64.83199999999978
1000.0,1146.6799999999998,23440.0,86.73000000000002,92.59333333333333,0.9973493289824575,-0.045173082471208964,0.057041288539891905,65.41999999999985
1008.0,1147.472,23448.0,86.70280000000001,92.612,0.9973073954628646,-0.04549677210174628,0.05751523870592052,66.00799999999991
1016.0,1148.2639999999997,23456.0,86.67560000000002,92.63066666666666,0.9972651321362965,-0.04582042887699459,0.05798917590984611,66.59599999999973
1024.0,1149.0339999999999,23464.0,86.64840000000001,92.64999999999999,0.9972220020513469,-0.04615565575147246,0.05846310004485876,67.18533333333318
1032.0,1149.7819999999997,23472.0,86.62120000000002,92.66999999999999,0.9971779935343149,-0.04650245095448691,0.05893701100415063,67.77599999999977
1040.0,1150.53,23480.0,86.59400000000001,92.69,0.9971336396919455,-0.04684921049922929,0.05941090868091772,68.36666666666659
1048.0,1151.2780000000002,23488.0,86.5668,92.71000000000001,0.997088940553821,-0.04719593410873015,0.05988479296835838,68.95733333333341
1056.0,1152.026,23496.0,86.53960000000001,92.73,0.9970438961497531,-0.047542621506044484,0.06035866375967395,69.548
1064.0,1152.7740000000001,23504.0,86.5124,92.75000000000001,0.9969985065097823,-0.04788927241425268,0.0608325209480695,70.13866666666682
1072.0,1153.5220000000004,23512.0,86.48519999999999,92.77000000000001,0.996952771664178,-0.04823588655645894,0.06130636442675249,70.72933333333364
1080.0,1154.2700000000002,23520.0,86.45799999999998,92.79000000000002,0.9969066916434393,-0.04858246365579351,0.06178019408893369,71.32000000000023
1088.0,1154.9780000000003,23528.0,86.43079999999998,92.80866666666668,0.9968614048379854,-0.048905805430387854,0.06225400982782699,71.91200000000029
1096.0,1155.6860000000001,23536.0,86.4036,92.82733333333334,0.9968157885062336,-0.04922911175837331,0.06272781153664897,72.50400000000012
1104.0,1156.3940000000002,23544.0,86.37639999999999,92.84600000000002,0.9967698426768015,-0.04955238238649701,0.06320159910862069,73.09600000000019
1112.0,1157.1020000000003,23552.0,86.34919999999998,92.86466666666668,0.9967235673785112,-0.04987561706152838,0.06367537243696489,73.68800000000026
1120.0,1157.81,23560.0,86.32199999999999,92.88333333333334,0.9966769626403891,-0.050198815530260676,0.06414913141490834,74.28000000000009
1128.0,1158.518,23568.0,86.29479999999998,92.90200000000002,0.9966300284916659,-0.05052197753951048,0.0646228759356811,74.87200000000014
1136.0,1159.2259999999999,23576.0,86.26759999999999,92.92066666666668,0.9965827649617762,-0.05084510283611707,0.0650966058925158,75.46399999999997
1144.0,1159.916,23584.0,86.2404,92.94000000000001,0.9965345766439626,-0.051179786376723393,0.065570321178649,76.05800000000005
