time,flux,t,zenith,azimuth,sn1,sn2,sn3,sun_h
0.0,159.58999999994046,21490.0,89.949,89.99,0.9999995886142068,0.00017453285517134796,0.000890117800975533,0.14166666666661382
8.0,287.2619999999745,21498.0,89.949,89.99,0.9999995886142068,0.00017453285517134796,0.000890117800975533,0.25499999999997736
16.0,414.9340000000085,21506.0,89.949,89.99,0.9999995886142068,0.00017453285517134796,0.000890117800975533,0.36833333333334084
24.0,542.6059999999915,21514.0,89.949,89.99,0.9999995886142068,0.00017453285517134796,0.000890117800975533,0.4816666666666591
32.0,670.2780000000255,21522.0,89.949,89.99,0.9999995886142068,0.00017453285517134796,0.000890117800975533,0.5950000000000226
40.0,797.9500000000085,21530.0,89.949,89.99,0.9999995886142068,0.00017453285517134796,0.000890117800975533,0.7083333333333408
48.0,925.6220000000425,21538.0,89.949,89.99,0.9999995886142068,0.00017453285517134796,0.000890117800975533,0.8216666666667044
56.0,959.5250000000012,21546.0,89.92879999999998,90.004,0.9999992254432957,-6.981311611901977e-05,0.0012426741075892021,1.1960000000002213
64.0,962.1716666666671,21554.0,89.90186666666666,90.02266666666667,0.9999984549917521,-0.0003956073732060665,0.0017127489352286114,1.6573333333334193
72.0,964.8183333333341,21562.0,89.87493333333333,90.04133333333333,0.9999973574278603,-0.0007214009762763531,0.0021828233844009173,2.118666666666802
80.0,967.4649999999999,21570.0,89.84800000000001,90.06,0.9999959327522544,-0.0010471936747769083,0.0026528973512327148,2.5799999999999996
88.0,970.1116666666669,21578.0,89.82106666666667,90.07866666666666,0.9999941809657688,-0.0013729852181545985,0.0031229707318520374,3.0413333333333825
96.0,972.7583333333339,21586.0,89.79413333333333,90.09733333333334,0.999992102069439,-0.0016987753558580245,0.003593043422385715,3.502666666666765
104.0,975.4049999999997,21594.0,89.76720000000002,90.116,0.9999896960645012,-0.0020245638373356965,0.004063115318961176,3.9639999999999627
112.0,977.976,21602.0,89.74026666666668,90.13499999999999,0.9999869492616851,-0.0023561681003249116,0.004533186317707131,4.430000000000012
120.0,980.3200000000003,21610.0,89.71333333333334,90.155,0.9999838244660713,-0.0027052231808960183,0.005003256314751384,4.910000000000064
128.0,982.6639999999996,21618.0,89.68640000000002,90.175,0.9999803568626653,-0.0030542756921332352,0.0054733252062215115,5.389999999999923
136.0,985.0079999999999,21626.0,89.65946666666667,90.195,0.9999765464537002,-0.0034033253601131585,0.005943392888246891,5.869999999999974
144.0,987.3519999999992,21634.0,89.63253333333336,90.21499999999999,0.9999723932416343,-0.0037523719109140564,0.00641345925695539,6.3499999999998336
152.0,989.6959999999995,21642.0,89.60560000000001,90.235,0.999967897229151,-0.004101415070616548,0.0068835242084767205,6.829999999999885
160.0,992.0399999999997,21650.0,89.57866666666668,90.255,0.9999630584191591,-0.004450454565302799,0.00735358763894002,7.3099999999999365
168.0,994.383999999999,21658.0,89.55173333333335,90.27499999999999,0.9999578768147925,-0.004799490121058188,0.007823649444474985,7.789999999999795
176.0,996.5429999999997,21666.0,89.52470000000001,90.294,0.9999524276491738,-0.005131068927990715,0.00829545479042324,8.279999999999902
184.0,998.6403333333327,21674.0,89.49763333333334,90.31266666666666,0.9999466725938483,-0.005456825950917553,0.008767840043737447,8.773333333333168
192.0,1000.7376666666665,21682.0,89.47056666666667,90.33133333333333,0.9999405882645052,-0.005782578478066856,0.009240223340384551,9.266666666666634
200.0,1002.8350000000005,21690.0,89.4435,90.35000000000001,0.9999341746648684,-0.0061083262567678985,0.009712604574945792,9.760000000000097
208.0,1004.9323333333335,21698.0,89.41643333333334,90.36866666666667,0.9999274317988648,-0.006434069034353009,0.010184983642002652,10.253333333333366
216.0,1007.0296666666674,21706.0,89.38936666666667,90.38733333333334,0.9999203596706242,-0.006759806558158468,0.010657360436137096,10.74666666666683
224.0,1009.1270000000004,21714.0,89.3623,90.406,0.9999129582844801,-0.007085538575522941,0.011129734851931593,11.240000000000098
232.0,1011.1733333333342,21722.0,89.33523333333333,90.42500000000001,0.9999051845110561,-0.007417082046474206,0.01160210678396937,11.736333333333548
240.0,1013.0666666666677,21730.0,89.30816666666666,90.44500000000001,0.9998969422740205,-0.007766070906624756,0.012074476126833536,12.241666666666935
248.0,1014.9600000000005,21738.0,89.2811,90.465,0.9998883550924441,-0.00811505310536388,0.012546842775108672,12.74700000000012
256.0,1016.853333333334,21746.0,89.25403333333333,90.485,0.9998794229719444,-0.008464028366518944,0.013019206623379069,13.252333333333508
264.0,1018.7466666666668,21754.0,89.22696666666667,90.505,0.9998701459183658,-0.008812996413922013,0.013491567566230087,13.757666666666694
272.0,1020.6400000000003,21762.0,89.1999,90.525,0.9998605239377808,-0.009161956971410297,0.0139639254982484,14.26300000000008
280.0,1022.5333333333339,21770.0,89.17283333333333,90.545,0.9998505570364895,-0.009510909762825329,0.014436280314020023,14.768333333333468
288.0,1024.4266666666667,21778.0,89.14576666666666,90.565,0.9998402452210201,-0.009859854512014666,0.014908631908132778,15.273666666666653
296.0,1026.1910000000003,21786.0,89.11869999999999,90.58399999999999,0.99982976652286,-0.01019134062299882,0.015380980175174313,15.787000000000063
304.0,1027.912333333334,21794.0,89.09163333333332,90.60266666666666,0.9998190160019377,-0.010517001809107704,0.01585332500973369,16.303000000000143
312.0,1029.6336666666668,21802.0,89.06456666666666,90.62133333333333,0.999807936285636,-0.010842654652319646,0.016325666306400515,16.81900000000002
320.0,1031.3550000000005,21810.0,89.0375,90.64,0.9997965273807703,-0.011168298900028583,0.016798003959765176,17.335000000000104
328.0,1033.0763333333332,21818.0,89.01043333333334,90.65866666666666,0.9997847892943584,-0.011493934299632974,0.01727033786441866,17.850999999999978
336.0,1034.7976666666668,21826.0,88.98336666666667,90.67733333333332,0.9997727220336216,-0.011819560598537686,0.017742667914953672,18.36700000000006
344.0,1036.5190000000005,21834.0,88.9563,90.696,0.9997603256059844,-0.012145177544153436,0.018214994005962454,18.883000000000145
352.0,1038.2036666666668,21842.0,88.92923333333334,90.71466666666666,0.999747600019074,-0.012470784883896188,0.01868731603203879,19.401333333333362
360.0,1039.7783333333336,21850.0,88.90216666666666,90.73333333333333,0.9997345452807211,-0.012796382365189058,0.019159633887778263,19.926666666666808
368.0,1041.353,21858.0,88.8751,90.752,0.9997211613989593,-0.013121969735460494,0.019631947467775163,20.45200000000004
376.0,1042.927666666667,21866.0,88.84803333333332,90.77066666666667,0.9997074483820255,-0.013447546742146422,0.0201042566666274,20.977333333333487
384.0,1044.502333333334,21874.0,88.82096666666665,90.78933333333333,0.9996934062383592,-0.013773113132688418,0.020576561378931425,21.502666666666933
392.0,1046.0770000000005,21882.0,88.79389999999998,90.808,0.9996790349766036,-0.014098668654535858,0.021048861499286236,22.02800000000017
400.0,1047.6516666666673,21890.0,88.76683333333331,90.82666666666667,0.9996643346056044,-0.014424213055144101,0.02152115692229164,22.553333333333615
408.0,1049.2263333333337,21898.0,88.73976666666665,90.84533333333333,0.9996493051344109,-0.014749746081976375,0.021993447542547593,23.078666666666848
416.0,1050.7040000000006,21906.0,88.71269999999998,90.86500000000001,0.9996336833069687,-0.015092714383888695,0.022465733254656697,23.610000000000255
424.0,1052.1493333333342,21914.0,88.68563333333331,90.885,0.9996176309131112,-0.015441485794476295,0.022938013953221075,24.143333333333647
432.0,1053.594666666667,21922.0,88.65856666666666,90.905,0.9996012337569952,-0.01579024431354695,0.023410289532844644,24.676666666666822
440.0,1055.0400000000006,21930.0,88.63149999999999,90.92500000000001,0.9995844918493785,-0.016138989665079987,0.023882559888133138,25.210000000000214
448.0,1056.4853333333335,21938.0,88.60443333333333,90.945,0.9995674052012463,-0.01648772157306266,0.024354824913691883,25.74333333333339
456.0,1057.9306666666669,21946.0,88.57736666666666,90.965,0.9995499738238116,-0.01683643976149308,0.024827084504128964,26.27666666666678
464.0,1059.3760000000004,21954.0,88.5503,90.985,0.9995321977285149,-0.0171851439543769,0.025299338554053006,26.810000000000173
472.0,1060.794,21962.0,88.52323333333334,91.00466666666667,0.9995141789178196,-0.017528018938246168,0.025771586958073207,27.345000000000024
480.0,1062.1300000000003,21970.0,88.49616666666667,91.02333333333334,0.9994961311894766,-0.01785343509321957,0.026243829610801357,27.885000000000108
488.0,1063.4660000000006,21978.0,88.4691,91.042,0.9994777544650276,-0.018178837292053555,0.026716066406849863,28.425000000000196
496.0,1064.8020000000001,21986.0,88.44203333333334,91.06066666666666,0.9994590487557987,-0.018504225282302455,0.027188297240831775,28.965000000000067
504.0,1066.1380000000004,21994.0,88.41496666666667,91.07933333333334,0.9994400140733195,-0.018829598811529718,0.027660522007362798,29.50500000000015
512.0,1067.4740000000002,22002.0,88.3879,91.098,0.9994206504293223,-0.019154957627307307,0.028132740601059338,30.045000000000023
520.0,1068.8100000000004,22010.0,88.36083333333333,91.11666666666667,0.9994009578357423,-0.019480301477217615,0.02860495291653872,30.585000000000107
528.0,1070.1460000000004,22018.0,88.33376666666666,91.13533333333334,0.999380936304718,-0.019805630108851637,0.029077158848420565,31.125000000000195
536.0,1071.4080000000001,22026.0,88.3066,91.155,0.9993601827807349,-0.020148384359777095,0.029551102858385577,31.670000000000044
544.0,1072.6453333333336,22034.0,88.2794,91.17500000000001,0.9993389503407337,-0.020496935650794332,0.030025621738903396,32.21666666666677
552.0,1073.8826666666666,22042.0,88.2522,91.19500000000001,0.9993173711192196,-0.02084546987585457,0.030500133852602238,32.76333333333328
560.0,1075.12,22050.0,88.225,91.215,0.999295445130438,-0.02119398675678317,0.030974639092542635,33.31
568.0,1076.3573333333334,22058.0,88.1978,91.235,0.9992731723888639,-0.021542486015417073,0.031449137351785776,33.856666666666726
576.0,1077.5946666666664,22066.0,88.17060000000001,91.255,0.9992505529092031,-0.02189096737360523,0.03192362852339509,34.40333333333323
584.0,1078.8319999999999,22074.0,88.1434,91.275,0.999227586706391,-0.02223943055320904,0.032398112500435595,34.94999999999995
592.0,1080.0476666666661,22082.0,88.11623333333334,91.29466666666667,0.9992044243090609,-0.022582062572993743,0.032872007713971065,35.498333333333136
600.0,1081.198333333333,22090.0,88.08916666666667,91.31333333333333,0.9991813779323826,-0.022907238491772234,0.0333441511786754,36.051666666666556
608.0,1082.349,22098.0,88.0621,91.33200000000001,0.9991580027542202,-0.02323239660600256,0.03381628720216299,36.604999999999976
616.0,1083.4996666666664,22106.0,88.03503333333333,91.35066666666667,0.9991342987889927,-0.023557536663394694,0.03428841567907025,37.158333333333175
624.0,1084.6503333333333,22114.0,88.00796666666666,91.36933333333334,0.9991102660513218,-0.02388265841167118,0.03476053650403527,37.7116666666666
632.0,1085.8009999999997,22122.0,87.9809,91.388,0.9990859045560322,-0.024207761598565303,0.03523264957169701,38.2649999999998
640.0,1086.9516666666666,22130.0,87.95383333333334,91.40666666666667,0.9990612143181511,-0.024532845971822984,0.035704754776697434,38.81833333333322
648.0,1088.1023333333335,22138.0,87.92676666666667,91.42533333333334,0.9990361953529089,-0.024857911279202206,0.036176852013679636,39.37166666666664
656.0,1089.1949999999997,22146.0,87.8996,91.445,0.9990103440524114,-0.0252003916801391,0.03665068533397513,39.92899999999982
664.0,1090.2683333333332,22154.0,87.87240000000001,91.465,0.9989839805460294,-0.025548662822085007,0.03712509178996832,40.48766666666655
672.0,1091.3416666666667,22162.0,87.8452,91.485,0.9989572704918954,-0.025896912793034473,0.037599489879148566,41.04633333333327
680.0,1092.4149999999997,22170.0,87.81800000000001,91.505,0.9989302139076514,-0.026245141315006663,0.038073879494601205,41.60499999999978
688.0,1093.488333333333,22178.0,87.79080000000002,91.52499999999999,0.9989028108111695,-0.02659334811003513,0.038548260529414145,42.1636666666665
696.0,1094.561666666666,22186.0,87.76360000000003,91.54499999999999,0.9988750612205518,-0.02694153290016822,0.039022632876677024,42.722333333333005
704.0,1095.6349999999995,22194.0,87.73640000000002,91.56499999999998,0.9988469651541306,-0.027289695407469283,0.03949699642948163,43.280999999999736
712.0,1096.6909999999998,22202.0,87.70920000000002,91.58466666666666,0.9988186834039727,-0.027632024462932857,0.0399713510809211,43.84066666666647
720.0,1097.6949999999995,22210.0,87.68200000000002,91.60333333333332,0.9987905473241449,-0.027956898834422855,0.040445696724091214,44.40333333333304
728.0,1098.6989999999996,22218.0,87.65480000000001,91.62199999999999,0.9987620804849363,-0.02828175143178923,0.0409200332520898,44.96599999999982
736.0,1099.7029999999995,22226.0,87.62760000000002,91.64066666666666,0.9987332829040121,-0.02860658200078778,0.04139436055801607,45.52866666666638
744.0,1100.7069999999997,22234.0,87.60040000000001,91.65933333333332,0.9987041545992414,-0.02893139028718774,0.0418686785349722,46.09133333333317
752.0,1101.711,22242.0,87.5732,91.678,0.9986746955886996,-0.02925617603677371,0.04234298707606181,46.653999999999954
760.0,1102.7149999999997,22250.0,87.546,91.69666666666666,0.9986449058906662,-0.029580938995343833,0.04281728607439063,47.21666666666652
768.0,1103.719,22258.0,87.5188,91.71533333333333,0.9986147855236263,-0.02990567890871193,0.043291575423067226,47.779333333333305
776.0,1104.6759999999997,22266.0,87.49170000000001,91.734,0.9985844108555969,-0.03023039783404815,0.04376411135822949,48.34499999999984
784.0,1105.6173333333331,22274.0,87.46463333333334,91.75266666666667,0.9985537329299528,-0.030555094093268922,0.04423605629583141,48.9116666666666
792.0,1106.5586666666668,22282.0,87.43756666666667,91.77133333333333,0.9985227265907256,-0.030879766680463334,0.044707991361535124,49.47833333333336
800.0,1107.4999999999998,22290.0,87.4105,91.78999999999999,0.9984913918570504,-0.0312044153436532,0.04517991645002124,50.04499999999989
808.0,1108.4413333333332,22298.0,87.38343333333333,91.80866666666667,0.9984597287482648,-0.03152903983087568,0.04565183145597325,50.61166666666664
816.0,1109.3826666666664,22306.0,87.35636666666667,91.82733333333333,0.9984277372839088,-0.031853639890182694,0.04612373627407669,51.17833333333318
824.0,1110.3239999999998,22314.0,87.3293,91.846,0.9983954174837252,-0.032178215269642776,0.04659563079901935,51.74499999999993
832.0,1111.2513333333334,22322.0,87.3022,91.865,0.998362552888904,-0.03250857306477281,0.04706809605712407,52.312666666666686
840.0,1112.1366666666663,22330.0,87.275,91.88499999999999,0.9983286994104321,-0.032856326655124606,0.04754229414118415,52.883333333333184
848.0,1113.022,22338.0,87.2478,91.905,0.9982944998154519,-0.03320405308914578,0.048016481510725684,53.45399999999991
856.0,1113.9073333333333,22346.0,87.2206,91.925,0.9982599541265595,-0.03355175208921176,0.0484906580588815,54.02466666666664
864.0,1114.7926666666665,22354.0,87.19340000000001,91.945,0.9982250623665805,-0.033899423377717404,0.048964823678787316,54.59533333333314
872.0,1115.6779999999999,22362.0,87.1662,91.965,0.9981898245585701,-0.03424706667707646,0.04943897826358196,55.16599999999987
880.0,1116.5633333333328,22370.0,87.13900000000002,91.985,0.9981542407258133,-0.034594681709721,0.04991312170640521,55.736666666666366
888.0,1117.4486666666664,22378.0,87.11180000000002,92.005,0.9981183108918241,-0.0349422681981031,0.05038725390040113,56.30733333333309
896.0,1118.2949999999998,22386.0,87.08460000000001,92.024,0.9980826508519844,-0.035272406041603005,0.050861374738714965,56.88099999999989
904.0,1119.128333333333,22394.0,87.05740000000002,92.04266666666666,0.998046863795807,-0.03559670965250188,0.05133548411449477,57.455666666666474
912.0,1119.9616666666666,22402.0,87.03020000000001,92.06133333333334,0.9980107464427378,-0.035920985593268,0.051809581920891835,58.030333333333296
920.0,1120.7949999999998,22410.0,87.00300000000001,92.08,0.9979742988151955,-0.036245233610028044,0.052283668051059176,58.60499999999988
928.0,1121.6283333333336,22418.0,86.9758,92.09866666666667,0.9979375209358032,-0.0365694534489277,0.05275774239815331,59.179666666666705
936.0,1122.461666666667,22426.0,86.9486,92.11733333333335,0.9979004128273891,-0.03689364485613009,0.05323180485533278,59.75433333333353
944.0,1123.2950000000003,22434.0,86.9214,92.13600000000001,0.9978629745129857,-0.03721780757781665,0.05370585531575876,60.329000000000114
952.0,1124.1163333333338,22442.0,86.89423333333333,92.15500000000002,0.9978250190869055,-0.03754774765654891,0.05417931275068771,60.904333333333575
960.0,1124.9016666666669,22450.0,86.86716666666668,92.17500000000001,0.9977861643216466,-0.03789507641735175,0.05465101528443087,61.48166666666674
968.0,1125.6870000000001,22458.0,86.84009999999999,92.19500000000001,0.9977469659931986,-0.038242374093064295,0.05512270562203163,62.05900000000014
976.0,1126.4723333333336,22466.0,86.81303333333332,92.215,0.9977074241273304,-0.03858964040865598,0.05559438365822452,62.63633333333353
984.0,1127.2576666666666,22474.0,86.78596666666667,92.235,0.9976675387500378,-0.03893687508911747,0.056066049287748415,63.2136666666667
992.0,1128.0430000000001,22482.0,86.7589,92.25500000000001,0.9976273098875433,-0.039284077859461156,0.056537702405344475,63.791000000000096
1000.0,1128.8283333333331,22490.0,86.73183333333333,92.27499999999999,0.9975867375662965,-0.039631248444720005,0.057009342905756676,64.36833333333325
1008.0,1129.6136666666666,22498.0,86.70476666666666,92.295,0.9975458218129729,-0.03997838656995054,0.05748097068373203,64.94566666666665
1016.0,1130.368,22506.0,86.6776,92.314,0.9975051652497711,-0.04030807813122634,0.05795432802987222,65.52500000000005
1024.0,1131.1119999999999,22514.0,86.6504,92.33266666666665,0.9974643779147011,-0.040631933592641625,0.058428253129472196,66.10499999999988
1032.0,1131.856,22522.0,86.6232,92.35133333333333,0.9974232606454535,-0.040955757525583406,0.05890216506120522,66.68499999999995
1040.0,1132.6,22530.0,86.596,92.37,0.9973818134675568,-0.04127954967646986,0.05937606371826619,67.265
1048.0,1133.3439999999998,22538.0,86.56880000000001,92.38866666666667,0.9973400364067441,-0.04160330979173966,0.05984994899385366,67.84499999999983
1056.0,1134.088,22546.0,86.5416,92.40733333333333,0.9972979294889529,-0.04192703761785264,0.06032382078116921,68.4249999999999
1064.0,1134.8319999999997,22554.0,86.51440000000001,92.42599999999999,0.9972554927403254,-0.04225073290128918,0.060797678973416806,69.00499999999973
1072.0,1135.5656666666666,22562.0,86.48720000000002,92.445,0.99721247848254,-0.04258019693630191,0.0612715234638041,69.58566666666647
1080.0,1136.2683333333334,22570.0,86.46000000000001,92.465,0.9971683815813105,-0.04292703129674316,0.06174535414554187,70.1683333333333
1088.0,1136.971,22578.0,86.4328,92.485,0.9971239393282939,-0.04327383030733049,0.062219170911843556,70.75099999999988
1096.0,1137.6736666666668,22586.0,86.4056,92.505,0.9970791517528664,-0.043620593691072324,0.06269297365592551,71.3336666666667
1104.0,1138.3763333333334,22594.0,86.3784,92.525,0.9970340188846336,-0.04396732117100134,0.06316676227100855,71.9163333333333
1112.0,1139.0790000000002,22602.0,86.3512,92.545,0.9969885407534297,-0.044314012470173976,0.06364053665031517,72.49900000000012
1120.0,1139.781666666667,22610.0,86.324,92.56500000000001,0.9969427173893183,-0.04466066731167226,0.06411429668707216,73.08166666666693
1128.0,1140.4843333333336,22618.0,86.29679999999999,92.58500000000001,0.9968965488225922,-0.04500728541860214,0.06458804227450887,73.66433333333353
1136.0,1141.1610000000005,22626.0,86.2696,92.60400000000001,0.9968508265062429,-0.0453364681919277,0.06506177330585791,74.24900000000028
1144.0,1141.8290000000002,22634.0,86.2424,92.62266666666667,0.9968050364964938,-0.04565981612277869,0.06553548967435562,74.83433333333345
